Capacitance Sensor Frequency, DC Capacitance , dC/dV Q 
880.00000 4.23412 8.05664
880.33203 3.84150 8.05664
880.66406 3.24900 -3.41797
880.99609 3.10013 -27.58789
881.32813 3.30600 7.32422
881.66016 3.48713 7.32422
881.99219 3.60675 -2.68555
882.32422 3.67650 28.80859
882.65625 3.72300 27.58789
882.98828 3.75075 27.58789
883.32031 3.77400 -4.88281
883.65234 3.79013 -13.18359
883.98438 3.80100 -19.28711
884.31641 3.81900 13.42773
884.64844 3.83062 13.42773
884.98047 3.84037 -8.78906
885.31250 3.85350 4.15039
885.64453 3.86738 -21.97266
885.97656 3.87863 -21.97266
886.30859 3.89250 -14.40430
886.64063 3.90075 -11.47461
886.97266 3.91275 -2.44141
887.30469 3.92362 -2.44141
887.63672 3.93825 -9.27734
887.96875 3.94725 14.16016
888.30078 3.96038 7.08008
888.63281 3.97163 -19.28711
888.96484 3.98400 -19.28711
889.29688 3.99788 -10.98633
889.62891 4.00688 -4.88281
889.96094 4.02150 -2.19727
890.29297 4.03238 -2.19727
890.62500 4.04363 -6.59180
890.95703 4.05525 -22.21680
891.28906 4.06688 -8.78906
891.62109 4.07775 -8.78906
891.95313 4.09387 -19.53125
892.28516 4.10588 -45.41016
892.61719 4.11450 0.00000
892.94922 4.12613 -0.24414
893.28125 4.13775 -0.24414
893.61328 4.14788 -10.74219
893.94531 4.16287 11.47461
894.27734 4.17225 0.97656
894.60938 4.18500 0.97656
894.94141 4.19738 -37.59766
895.27344 4.20975 -16.84570
895.60547 4.22100 -15.86914
895.93750 4.22700 -15.86914
896.26953 4.24275 -7.81250
896.60156 4.25475 -15.62500
896.93359 4.26525 8.30078
897.26563 4.28062 9.03320
897.59766 4.28775 9.03320
897.92969 4.30125 46.14258
898.26172 4.31250 -19.53125
898.59375 4.31963 -9.76563
898.92578 4.33125 -9.76563
899.25781 4.34400 -28.80859
899.58984 4.35600 -9.52148
899.92188 4.36238 -2.68555
900.25391 4.37812 -2.68555
900.58594 4.38638 -2.19727
900.91797 4.39950 -10.49805
901.25000 4.40625 12.20703
901.58203 4.42013 -51.02539
901.91406 4.42537 -51.02539
902.24609 4.43813 19.77539
902.57813 4.44900 12.45117
902.91016 4.45950 -12.45117
903.24219 4.46513 -12.45117
903.57422 4.47750 -8.05664
903.90625 4.48875 -6.83594
904.23828 4.49437 11.96289
904.57031 4.50413 11.96289
904.90234 4.51875 -30.51758
905.23438 4.51800 -53.71094
905.56641 4.53075 -38.81836
905.89844 4.54050 -56.88477
906.23047 4.55138 -56.88477
906.56250 4.55925 -0.24414
906.89453 4.56938 -7.81250
907.22656 4.57688 -17.82227
907.55859 4.58512 -17.82227
907.89063 4.59112 -13.67188
908.22266 4.59788 4.15039
908.55469 4.61100 0.00000
908.88672 4.61550 -12.93945
909.21875 4.63050 -12.93945
909.55078 4.63462 -3.17383
909.88281 4.64100 1.22070
910.21484 4.64963 9.03320
910.54688 4.65450 9.03320
910.87891 4.66162 -20.75195
911.21094 4.67063 -19.77539
911.54297 4.67700 15.13672
911.87500 4.68788 15.13672
912.20703 4.69200 -13.18359
912.53906 4.70175 -18.55469
912.87109 4.70512 -37.59766
913.20313 4.71188 17.82227
913.53516 4.72125 17.82227
913.86719 4.72762 15.86914
914.19922 4.73212 -7.81250
914.53125 4.73888 -4.88281
914.86328 4.74750 -4.88281
915.19531 4.74750 -30.51758
915.52734 4.75612 -24.90234
915.85938 4.76325 -19.28711
916.19141 4.76925 -19.28711
916.52344 4.77337 -1.70898
916.85547 4.77825 -2.44141
917.18750 4.78425 6.10352
917.51953 4.78800 -11.47461
917.85156 4.79587 -11.47461
918.18359 4.79962 27.83203
918.51563 4.80563 -8.05664
918.84766 4.81388 -6.10352
919.17969 4.81425 -6.10352
919.51172 4.81538 0.48828
919.84375 4.82437 -14.89258
920.17578 4.82400 39.55078
920.50781 4.82888 39.55078
920.83984 4.83188 -19.28711
921.17188 4.83825 -30.27344
921.50391 4.84312 -12.20703
921.83594 4.84500 2.19727
922.16797 4.84912 2.19727
922.50000 4.85325 -31.73828
922.83203 4.85325 13.67188
923.16406 4.85700 13.91602
923.49609 4.85850 13.91602
923.82813 4.85925 22.46094
924.16016 4.86300 -6.59180
924.49219 4.86750 -2.19727
924.82422 4.86300 -2.19727
925.15625 4.87237 -49.31641
925.48828 4.87050 -9.76563
925.82031 4.87162 11.71875
926.15234 4.87087 25.14648
926.48438 4.87275 25.14648
926.81641 4.87613 -9.76563
927.14844 4.87688 -30.76172
927.48047 4.87200 -2.68555
927.81250 4.87575 -2.68555
928.14453 4.87613 23.92578
928.47656 4.87913 16.84570
928.80859 4.87613 11.96289
929.14063 4.87763 11.96289
929.47266 4.88363 -16.35742
929.80469 4.87875 15.13672
930.13672 4.88100 -25.63477
930.46875 4.87425 7.08008
930.80078 4.87800 7.08008
931.13281 4.88100 -22.21680
931.46484 4.87838 -7.56836
931.79688 4.87725 -14.64844
932.12891 4.87613 -14.64844
932.46094 4.87125 -10.25391
932.79297 4.87237 2.19727
933.12500 4.87575 -22.94922
933.45703 4.86750 -22.94922
933.78906 4.87425 -26.36719
934.12109 4.86525 -19.28711
934.45313 4.86450 17.57813
934.78516 4.86488 41.25977
935.11719 4.86188 41.25977
935.44922 4.86300 3.41797
935.78125 4.85888 8.05664
936.11328 4.85738 -8.78906
936.44531 4.85663 -8.78906
936.77734 4.85550 4.39453
937.10938 4.85663 -16.35742
937.44141 4.85588 8.78906
937.77344 4.85363 8.78906
938.10547 4.85325 10.25391
938.43750 4.85513 -6.10352
938.76953 4.86075 10.00977
939.10156 4.85363 -231.20117
939.43359 4.85700 -231.20117
939.76563 4.85550 22.46094
940.09766 4.84912 85.93750
940.42969 4.85550 -66.89453
940.76172 4.85438 -66.89453
941.09375 4.86712 51.51367
941.42578 4.86225 15.13672
941.75781 4.86263 -17.57813
942.08984 4.87012 -47.11914
942.42188 4.86525 -47.11914
942.75391 4.87388 59.57031
943.08594 4.87200 -26.85547
943.41797 4.88175 -47.85156
943.75000 4.88400 -47.85156
944.08203 4.89150 -109.37500
944.41406 4.89525 -55.90820
944.74609 4.90388 -34.66797
945.07813 4.90988 -34.66797
945.41016 4.92450 -6.34766
945.74219 4.92750 -8.30078
946.07422 4.94325 -9.27734
946.40625 4.95150 -15.86914
946.73828 4.96050 -15.86914
947.07031 4.97513 -18.31055
947.40234 4.98825 2.92969
947.73438 4.99725 -3.17383
948.06641 5.00288 -3.17383
948.39844 5.02388 4.15039
948.73047 5.03813 -34.17969
949.06250 5.05500 -1.95313
949.39453 5.07225 -1.95313
949.72656 5.08950 53.46680
950.05859 5.10900 71.77734
950.39063 5.13150 22.70508
950.72266 5.13975 -97.16797
951.05469 5.16750 -97.16797
951.38672 5.18588 -20.01953
951.71875 5.20388 -1.70898
952.05078 5.22300 16.35742
952.38281 5.23313 16.35742
952.71484 5.26500 37.10938
953.04688 5.28413 9.03320
953.37891 5.30850 -6.34766
953.71094 5.33363 -6.34766
954.04297 5.34863 -23.68164
954.37500 5.36550 -46.38672
954.70703 5.39025 111.32813
955.03906 5.42325 -7.81250
955.37109 5.44875 -7.81250
955.70313 5.46675 -30.27344
956.03516 5.49075 103.75977
956.36719 5.51475 13.91602
956.69922 5.54438 13.91602
957.03125 5.58188 20.50781
957.36328 5.59088 33.69141
957.69531 5.62200 152.09961
958.02734 5.64112 152.09961
958.35938 5.66737 -121.82617
958.69141 5.69100 -6.59180
959.02344 5.71500 67.13867
959.35547 5.74275 -7.08008
959.68750 5.76187 -7.08008
960.01953 5.79150 -1.95313
960.35156 5.80388 15.13672
960.68359 5.82675 -4.15039
961.01563 5.85863 -4.15039
961.34766 5.87138 7.08008
961.67969 5.89575 -18.79883
962.01172 5.92237 -17.08984
962.34375 5.93325 -17.08984
962.67578 5.96175 -29.05273
963.00781 5.98988 9.03320
963.33984 5.99662 0.97656
963.67188 6.02062 -1.70898
964.00391 6.03862 -1.70898
964.33594 6.06337 -27.83203
964.66797 6.07950 13.18359
965.00000 6.09713 -30.02930
965.33203 6.11062 -30.02930
965.66406 6.13013 -6.10352
965.99609 6.15825 21.24023
966.32813 6.16913 -4.88281
966.66016 6.18975 -4.88281
966.99219 6.20100 -7.32422
967.32422 6.22163 -5.12695
967.65625 6.23100 0.73242
967.98828 6.24225 -1.22070
968.32031 6.25763 -1.22070
968.65234 6.26850 67.87109
968.98438 6.28913 -11.47461
969.31641 6.30075 44.67773
969.64844 6.31050 44.67773
969.98047 6.32963 -62.74414
970.31250 6.34612 18.79883
970.64453 6.34387 81.78711
970.97656 6.35663 81.78711
971.30859 6.36638 91.06445
971.64063 6.39412 -40.03906
971.97266 6.39975 -57.61719
972.30469 6.40538 -5.12695
972.63672 6.41400 -5.12695
972.96875 6.41737 2.44141
973.30078 6.41812 24.41406
973.63281 6.42975 27.09961
973.96484 6.44963 27.09961
974.29688 6.44888 -9.76563
974.62891 6.45788 -9.52148
974.96094 6.46950 -25.14648
975.29297 6.47813 -25.39063
975.62500 6.47775 -25.39063
975.95703 6.47888 30.51758
976.28906 6.47888 30.27344
976.62109 6.48412 -22.70508
976.95313 6.47850 -22.70508
977.28516 6.46275 -7.81250
977.61719 6.45450 16.35742
977.94922 6.44963 2.92969
978.28125 6.45225 2.92969
978.61328 6.45900 34.66797
978.94531 6.46763 10.25391
979.27734 6.45038 -20.99609
979.60938 6.43575 2.19727
979.94141 6.42113 2.19727
980.27344 6.40650 12.20703
980.60547 6.38850 8.54492
980.93750 6.36263 -11.96289
981.26953 6.35438 -11.96289
981.60156 6.32100 -20.26367
981.93359 6.31200 -6.10352
982.26563 6.31838 -16.84570
982.59766 6.28500 -16.84570
982.92969 6.25988 -29.54102
983.26172 6.23925 -10.98633
983.59375 6.20775 4.39453
983.92578 6.17738 3.17383
984.25781 6.13687 3.17383
984.58984 6.11325 -16.60156
984.92188 6.07725 10.25391
985.25391 6.04087 28.32031
985.58594 5.99888 28.32031
985.91797 5.96475 -3.17383
986.25000 5.93813 -10.25391
986.58203 5.91000 -15.86914
986.91406 5.87138 -15.86914
987.24609 5.83613 5.61523
987.57813 5.78325 -46.87500
987.91016 5.73300 45.41016
988.24219 5.68350 0.00000
988.57422 5.66063 0.00000
988.90625 5.60888 -23.43750
989.23828 5.57362 3.66211
989.57031 5.53838 13.42773
989.90234 5.48287 13.42773
990.23438 5.45362 5.37109
990.56641 5.41050 12.45117
990.89844 5.35125 1.22070
991.23047 5.31038 1.22070
991.56250 5.26275 -17.33398
991.89453 5.21663 36.37695
992.22656 5.17087 25.39063
992.55859 5.12550 -2.19727
992.89063 5.08800 -2.19727
993.22266 5.04375 15.62500
993.55469 4.99838 11.23047
993.88672 4.96462 26.12305
994.21875 4.91850 26.12305
994.55078 4.89112 -27.83203
994.88281 4.84575 -4.15039
995.21484 4.80563 4.88281
995.54688 4.75913 4.88281
995.87891 4.72350 -0.24414
996.21094 4.68600 -4.63867
996.54297 4.64550 -24.16992
996.87500 4.60912 -15.62500
997.20703 4.57238 -15.62500
997.53906 4.53488 9.76563
997.87109 4.50113 -18.79883
998.20313 4.46962 -0.97656
998.53516 4.43775 -0.97656
998.86719 4.40212 -30.02930
999.19922 4.37175 -20.26367
999.53125 4.33950 -0.24414
999.86328 4.30163 -0.24414
1000.19531 4.28212 27.58789
1000.52734 4.24988 -2.19727
1000.85938 4.21875 -1.95313
1001.19141 4.19175 -10.25391
1001.52344 4.15988 -10.25391
1001.85547 4.13400 -29.05273
1002.18750 4.10513 -6.10352
1002.51953 4.07362 10.25391
1002.85156 4.04550 10.25391
1003.18359 4.01550 20.01953
1003.51563 3.98775 -40.77148
1003.84766 3.96113 11.71875
1004.17969 3.93300 11.71875
1004.51172 3.90300 0.73242
1004.84375 3.87263 33.44727
1005.17578 3.84900 -20.50781
1005.50781 3.81638 -40.03906
1005.83984 3.78600 -40.03906
1006.17188 3.75825 9.52148
1006.50391 3.72788 -6.34766
1006.83594 3.70538 -8.05664
1007.16797 3.67575 -8.05664
1007.50000 3.64275 -7.56836
1007.83203 3.61463 9.03320
1008.16406 3.58350 -10.25391
1008.49609 3.55013 14.40430
1008.82813 3.52088 14.40430
1009.16016 3.49200 2.19727
1009.49219 3.45788 25.63477
1009.82422 3.42675 -19.28711
1010.15625 3.39300 -19.28711
1010.48828 3.36075 -4.63867
1010.82031 3.32888 0.73242
1011.15234 3.29888 37.84180
1011.48438 3.26063 37.84180
1011.81641 3.22950 -1.46484
1012.14844 3.19350 -9.52148
1012.48047 3.16125 -22.70508
1012.81250 3.12825 -2.92969
1013.14453 3.09450 -2.92969
1013.47656 3.06000 -28.80859
1013.80859 3.02888 0.00000
1014.14063 2.99250 -48.58398
1014.47266 2.96100 -48.58398
1014.80469 2.92388 -21.97266
1015.13672 2.89087 -22.46094
1015.46875 2.86013 -21.72852
1015.80078 2.82638 -21.72852
1016.13281 2.79038 -49.80469
1016.46484 2.75888 1.70898
1016.79688 2.72625 -5.61523
1017.12891 2.69550 -0.48828
1017.46094 2.66663 -0.48828
1017.79297 2.63325 -7.56836
1018.12500 2.60288 -10.00977
1018.45703 2.57288 -20.99609
1018.78906 2.54775 -20.99609
1019.12109 2.51587 8.54492
1019.45313 2.49262 -23.43750
1019.78516 2.46413 -15.62500
1020.11719 2.43675 -15.62500
1020.44922 2.41313 -36.37695
1020.78125 2.38950 -7.32422
1021.11328 2.36775 -14.40430
1021.44531 2.34600 -13.67188
1021.77734 2.32388 -13.67188
1022.10938 2.30512 9.27734
1022.44141 2.28563 -9.27734
1022.77344 2.26650 19.04297
1023.10547 2.25525 19.04297
1023.43750 2.23875 -12.20703
1023.76953 2.22262 -48.82813
1024.10156 2.20688 -31.73828
1024.43359 2.19525 -31.73828
1024.76563 2.18175 0.97656
1025.09766 2.17013 -6.34766
1025.42969 2.16113 -16.35742
1025.76172 2.14950 -35.15625
1026.09375 2.13675 -35.15625
1026.42578 2.12850 -17.57813
1026.75781 2.11875 -19.77539
1027.08984 2.11200 -45.41016
1027.42188 2.10263 -45.41016
1027.75391 2.09400 -60.05859
1028.08594 2.08538 -12.20703
1028.41797 2.07750 -9.03320
1028.75000 2.07150 -9.03320
1029.08203 2.06475 -9.03320
1029.41406 2.06062 16.84570
1029.74609 2.05163 5.61523
1030.07813 2.04413 -47.36328
1030.41016 2.04263 -47.36328
1030.74219 2.03587 8.54492
1031.07422 2.03138 -34.66797
1031.40625 2.02725 -11.96289
1031.73828 2.01938 -11.96289
1032.07031 2.01975 36.13281
1032.40234 2.01150 -31.73828
1032.73438 2.00738 35.88867
1033.06641 2.00625 35.88867
1033.39844 2.00062 -13.42773
1033.73047 1.99313 0.00000
1034.06250 1.99088 -21.97266
1034.39453 1.98375 3.41797
1034.72656 1.98263 3.41797
1035.05859 1.97738 -38.57422
1035.39063 1.97400 -32.47070
1035.72266 1.97063 -1.22070
1036.05469 1.96125 -1.22070
1036.38672 1.96013 1.22070
1036.71875 1.95525 -15.38086
1037.05078 1.95375 -20.26367
1037.38281 1.94962 -20.26367
1037.71484 1.94213 13.67188
1038.04688 1.93575 -14.64844
1038.37891 1.93163 -7.81250
1038.71094 1.92863 -9.52148
1039.04297 1.92488 -9.52148
1039.37500 1.92113 -7.56836
1039.70703 1.91738 3.90625
1040.03906 1.91138 -31.98242
1040.37109 1.90575 -31.98242
1040.70313 1.89975 -10.25391
1041.03516 1.89825 -2.19727
1041.36719 1.89375 33.20313
1041.69922 1.88700 2.92969
1042.03125 1.88213 2.92969
1042.36328 1.87575 -17.33398
1042.69531 1.86975 -0.97656
1043.02734 1.86263 20.01953
1043.35938 1.85738 20.01953
1043.69141 1.84913 -20.26367
1044.02344 1.84238 -8.78906
1044.35547 1.83525 -27.34375
1044.68750 1.82738 -27.34375
1045.01953 1.81650 -13.18359
1045.35156 1.81088 -8.78906
1045.68359 1.79888 8.05664
1046.01563 1.79400 -0.97656
1046.34766 1.78275 -0.97656
1046.67969 1.77750 -12.45117
1047.01172 1.76775 -11.71875
1047.34375 1.75988 -31.00586
1047.67578 1.74788 -31.00586
1048.00781 1.74000 11.71875
1048.33984 1.73175 -41.74805
1048.67188 1.72350 -13.42773
1049.00391 1.71675 -13.42773
1049.33594 1.70325 23.68164
1049.66797 1.69500 4.63867
